#
#          E [MeV]          dedx_e               dedx_I               dedx_tot
#
     0   0.17700000E-01   0.1633315106014E-03   0.1552789814620E-03   0.4158734006465E-04
     1   0.35400000E-01   0.2173733496329E-03   0.1936835985202E-03   0.4196369975614E-04
     2   0.70800000E-01  -0.1544091619956E-03  -0.1071430587387E-03   0.4145315707839E-04
     3   0.10620000E+00  -0.2153830938448E-03  -0.1357301911706E-03   0.4160125710391E-04
     4   0.14160000E+00  -0.2276121918721E-03  -0.1318813658057E-03   0.4202821659590E-04
     5   0.17700000E+00  -0.2012049046112E-03  -0.1073378300752E-03   0.4207211259791E-04
     6   0.21240000E+00  -0.1393710829492E-03  -0.6561849791750E-04   0.4151451851986E-04
     7   0.24780000E+00  -0.4675309982035E-04  -0.9155086592198E-05   0.4196669400271E-04
     8   0.28320000E+00   0.7506250120170E-04   0.6054542170713E-04   0.4175615408444E-04
     9   0.31860000E+00   0.2249343726599E-03   0.1433097400625E-03   0.4156998693874E-04
    10   0.35400000E+00   0.4010863688257E-03   0.2383594943461E-03   0.4139406128790E-04
    11   0.38940000E+00   0.6016960580405E-03   0.3451519146920E-03   0.4174187465811E-04
    12   0.42480000E+00   0.8272930765505E-03   0.4637055784358E-03   0.4158111536339E-04
    13   0.46020000E+00   0.1076836559511E-02   0.5938646676343E-03   0.4142675878267E-04
    14   0.49560000E+00   0.1348330325597E-02   0.7349678181752E-03   0.4179580565738E-04
    15   0.53100000E+00   0.1642725574969E-02   0.8871838558279E-03   0.4165198253216E-04
    16   0.56640000E+00   0.1959293013736E-02   0.1050496452089E-02   0.4151284737928E-04
    17   0.60180000E+00   0.2297388042423E-02   0.1224684899615E-02   0.4137799499984E-04
    18   0.63720000E+00   0.2656507333442E-02   0.1409595243669E-02   0.4124707799862E-04
    19   0.67260000E+00   0.3035523587527E-02   0.1605138838173E-02   0.4195545772349E-04
    20   0.70800000E+00   0.3436080529199E-02   0.1811473842216E-02   0.4183122903186E-04
    21   0.74340000E+00  -0.1333716066008E-02  -0.6727404863251E-03   0.4171017130358E-04
    22   0.77880000E+00  -0.1410816520154E-02  -0.7119783810562E-03   0.4159207882817E-04
    23   0.81420000E+00  -0.1491409664048E-02  -0.7531364976585E-03   0.4147676843097E-04
    24   0.84960000E+00  -0.1575599547021E-02  -0.7962665031723E-03   0.4136407650886E-04
    25   0.88500000E+00  -0.1663063794664E-02  -0.8412006505291E-03   0.4125385640854E-04
    26   0.92040000E+00  -0.1754920402960E-02  -0.8882634683299E-03   0.4167309722857E-04
    27   0.95580000E+00  -0.1849549224898E-02  -0.9371270454307E-03   0.4156733097331E-04
    28   0.99120000E+00  -0.1948096316475E-02  -0.9881321113869E-03   0.4146368723500E-04
    29   0.10266000E+01  -0.2050068916849E-02  -0.1041026404074E-02   0.4136206677948E-04
    30   0.10620000E+01  -0.2156165722637E-02  -0.1095918513049E-02   0.4179259027448E-04
    31   0.10974000E+01  -0.2265573309831E-02  -0.1152903884143E-02   0.4169468305604E-04
    32   0.11328000E+01  -0.2378582417098E-02  -0.1211880635282E-02   0.4159855865876E-04
    33   0.11682000E+01  -0.2494918781545E-02  -0.1272710940459E-02   0.4150414719452E-04
    34   0.12036000E+01  -0.2614478713773E-02  -0.1335343528148E-02   0.4141138420502E-04
    35   0.12390000E+01  -0.2738774573031E-02  -0.1400568214667E-02   0.4132021038082E-04
    36   0.12744000E+01  -0.2865843140960E-02  -0.1467372288082E-02   0.4123057117605E-04
    37   0.13098000E+01  -0.2996230734434E-02  -0.1536043584812E-02   0.4114241592006E-04
    38   0.13452000E+01  -0.2176373899324E-02  -0.1111643607028E-02   0.4105569783664E-04
    39   0.13806000E+01  -0.2237941683783E-02  -0.1144134446669E-02   0.4182762509525E-04
    40   0.14160000E+01  -0.2295907193028E-02  -0.1175249987743E-02   0.4174363292602E-04
    41   0.14514000E+01  -0.2351148401829E-02  -0.1205029928925E-02   0.4166096539306E-04
    42   0.14868000E+01  -0.2404137790395E-02  -0.1233716247311E-02   0.4157958744460E-04
    43   0.15222000E+01  -0.2456551267694E-02  -0.1262179600732E-02   0.4149946638776E-04
    44   0.15576000E+01  -0.2505335125324E-02  -0.1288823109719E-02   0.4142057184553E-04
    45   0.15930000E+01  -0.2553464910493E-02  -0.1315196331561E-02   0.4134287550122E-04
    46   0.16284000E+01  -0.2598037952774E-02  -0.1339778434006E-02   0.4126635087721E-04
    47   0.16638000E+01  -0.2641999520167E-02  -0.1364105760125E-02   0.4119097351881E-04
    48   0.16992000E+01  -0.2684278483981E-02  -0.1387356493000E-02   0.4165849460740E-04
    49   0.17346000E+01  -0.2723057809132E-02  -0.1409260363262E-02   0.4122943924072E-04
    50   0.17700000E+01  -0.2759755094788E-02  -0.1429956824307E-02   0.4115900037016E-04
    51   0.18054000E+01  -0.2794742661927E-02  -0.1449807997091E-02   0.4108961787643E-04
    52   0.18408000E+01  -0.2828102682065E-02  -0.1468853519746E-02   0.4102127426620E-04
    53   0.18762000E+01  -0.2859363645962E-02  -0.1486841505868E-02   0.4095395340492E-04
    54   0.19116000E+01  -0.2888410044804E-02  -0.1503448312234E-02   0.4143305501195E-04
    55   0.19470000E+01  -0.2914587330863E-02  -0.1518841477050E-02   0.4136777017431E-04
    56   0.19824000E+01  -0.2938917333270E-02  -0.1533296587372E-02   0.4130346803373E-04
    57   0.20178000E+01  -0.2962274104404E-02  -0.1547272150675E-02   0.4124013613112E-04
    58   0.20532000E+01  -0.2982050733596E-02  -0.1559385635447E-02   0.4117776294479E-04
    59   0.20886000E+01  -0.3001172958534E-02  -0.1571180983789E-02   0.4111633758692E-04
    60   0.21240000E+01  -0.3016921175657E-02  -0.1581213686300E-02   0.4105585009067E-04
    61   0.21594000E+01  -0.3030232237963E-02  -0.1589975036970E-02   0.4099629105170E-04
    62   0.21948000E+01  -0.3042781637398E-02  -0.1598351018469E-02   0.4093765187876E-04
    63   0.22302000E+01  -0.3052055884929E-02  -0.1605002221276E-02   0.4087992445737E-04
    64   0.22656000E+01  -0.3059507618774E-02  -0.1610696422091E-02   0.4082310134894E-04
    65   0.23010000E+01  -0.3065706821275E-02  -0.1615320534155E-02   0.4165019142944E-04
    66   0.23364000E+01  -0.3068642828983E-02  -0.1618625966334E-02   0.4159524040054E-04
    67   0.23718000E+01  -0.3070486792979E-02  -0.1621353046638E-02   0.4154117711368E-04
    68   0.24072000E+01  -0.3069633511801E-02  -0.1622640812485E-02   0.4148799592039E-04
    69   0.24426000E+01  -0.3066773912121E-02  -0.1622854287426E-02   0.4143569191787E-04
    70   0.24780000E+01  -0.3061558636632E-02  -0.1621802400987E-02   0.4138426061762E-04
    71   0.25134000E+01  -0.3055443517186E-02  -0.1620261934460E-02   0.4133369777759E-04
    72   0.25488000E+01  -0.3046869514898E-02  -0.1617393622854E-02   0.4128399970868E-04
    73   0.25842000E+01  -0.3036527071493E-02  -0.1613564192476E-02   0.4123516313730E-04
    74   0.26196000E+01  -0.3024168196472E-02  -0.1608636868813E-02   0.4118718508358E-04
    75   0.26550000E+01  -0.3011068098403E-02  -0.1603294987245E-02   0.4114006295545E-04
    76   0.26904000E+01  -0.2995975873601E-02  -0.1596862344531E-02   0.4109379439897E-04
    77   0.27258000E+01  -0.2980014896459E-02  -0.1589684000600E-02   0.4160693916024E-04
    78   0.27612000E+01  -0.2962882178064E-02  -0.1582110315272E-02   0.4156243292370E-04
    79   0.27966000E+01  -0.2943838586219E-02  -0.1573481178709E-02   0.4151877615269E-04
    80   0.28320000E+01  -0.2924761049324E-02  -0.1564809527572E-02   0.4147596775527E-04
    81   0.28674000E+01  -0.2904459523483E-02  -0.1555449953871E-02   0.4143400692240E-04
    82   0.29028000E+01  -0.2883661711348E-02  -0.1545795054353E-02   0.4139289312822E-04
    83   0.29382000E+01  -0.2866666313565E-02  -0.1538176103267E-02   0.4135262606878E-04
    84   0.29736000E+01  -0.2845690643948E-02  -0.1528115303025E-02   0.4187568746436E-04
    85   0.30090000E+01  -0.2825349383422E-02  -0.1518629949039E-02   0.4183717580820E-04
    86   0.30444000E+01  -0.2805044075909E-02  -0.1509137135535E-02   0.4179951187687E-04
    87   0.30798000E+01  -0.2785565337408E-02  -0.1500067839859E-02   0.4176269639030E-04
    88   0.31152000E+01  -0.2767716858579E-02  -0.1491861873223E-02   0.4172673010922E-04
    89   0.31506000E+01  -0.2751414953182E-02  -0.1484475874757E-02   0.4169161416661E-04
    90   0.31860000E+01  -0.2736256046189E-02  -0.1477691353212E-02   0.4165734981598E-04
    91   0.32214000E+01  -0.2724139761391E-02  -0.1472549858769E-02   0.4162393849132E-04
    92   0.32568000E+01  -0.2714370382637E-02  -0.1468674680826E-02   0.4159138189940E-04
    93   0.32922000E+01  -0.2707871183265E-02  -0.1466575652631E-02   0.4155968188969E-04
    94   0.33276000E+01  -0.2705536563649E-02  -0.1466748688167E-02   0.4152884046522E-04
    95   0.33630000E+01  -0.2707469571849E-02  -0.1469256535676E-02   0.4149885985619E-04
    96   0.33984000E+01  -0.2713619463295E-02  -0.1474077477663E-02   0.4146974243905E-04
    97   0.34338000E+01  -0.2725922371609E-02  -0.1482283629255E-02   0.4144149080876E-04
    98   0.34692000E+01  -0.2744672065775E-02  -0.1493635733590E-02   0.4232504493535E-04
    99   0.35046000E+01  -0.2769877709214E-02  -0.1508968547389E-02   0.4229862773708E-04
   100   0.35400000E+01  -0.2802185738066E-02  -0.1528237579013E-02   0.4227308481724E-04
