#
#          E [MeV]          dedx_e               dedx_I               dedx_tot
#
     0   0.17700000E-01   0.1542024778820E+00   0.3830368585587E+01   0.3984571063469E+01   0.4519683008622E+00   0.3833830182172E+01   0.4285798483034E+01  -0.2977658229802E+00  -0.3461596585639E-02  -0.3012274195658E+00
     1   0.35400000E-01   0.2801541245958E+00   0.2353502033921E+01   0.2633656158517E+01   0.7008453058072E+00   0.2357068347821E+01   0.3057913653628E+01  -0.4206911812114E+00  -0.3566313899477E-02  -0.4242574951109E+00
     2   0.70800000E-01   0.4744867465549E+00   0.1379753824941E+01   0.1854240571496E+01   0.1068267251824E+01   0.1383396569109E+01   0.2451663820933E+01  -0.5937805052688E+00  -0.3642744167791E-02  -0.5974232494366E+00
     3   0.10620000E+00   0.6181165080945E+00   0.9946951881273E+00   0.1612811696222E+01   0.1343920971014E+01   0.9983847763447E+00   0.2342305747359E+01  -0.7258044629193E+00  -0.3689588217411E-02  -0.7294940511367E+00
     4   0.14160000E+00   0.7354237660541E+00   0.7843999321148E+00   0.1519823698169E+01   0.1571869197138E+01   0.7881274741116E+00   0.2359996671250E+01  -0.8364454310842E+00  -0.3727541996755E-02  -0.8401729730810E+00
     5   0.17700000E+00   0.8367349756316E+00   0.6506852611460E+00   0.1487420236778E+01   0.1770079042432E+01   0.6544459335585E+00   0.2424524975991E+01  -0.9333440668006E+00  -0.3760672412502E-02  -0.9371047392131E+00
     6   0.21240000E+00   0.9272120727620E+00   0.5576458936820E+00   0.1484857966444E+01   0.1947639412395E+01   0.5614599262787E+00   0.2509099338674E+01  -0.1020427339633E+01  -0.3814032596683E-02  -0.1024241372230E+01
     7   0.24780000E+00   0.1009799127097E+01   0.4889222131116E+00   0.1498721340209E+01   0.2109832124668E+01   0.4928029406953E+00   0.2602635065364E+01  -0.1100032997571E+01  -0.3880727583735E-02  -0.1103913725155E+01
     8   0.28320000E+00   0.1086338776627E+01   0.4359589486512E+00   0.1522297725278E+01   0.2260026221072E+01   0.4399015206854E+00   0.2699927741758E+01  -0.1173687444445E+01  -0.3942572034167E-02  -0.1177630016479E+01
     9   0.31860000E+00   0.1158064435773E+01   0.3938158422373E+00   0.1551880278011E+01   0.2400517617159E+01   0.3978128057000E+00   0.2798330422859E+01  -0.1242453181386E+01  -0.3996963462709E-02  -0.1246450144849E+01
    10   0.35400000E+00   0.1225848353413E+01   0.3594353047936E+00   0.1585283658207E+01   0.2532953817692E+01   0.3634797125647E+00   0.2896433530257E+01  -0.1307105464279E+01  -0.4044407771066E-02  -0.1311149872050E+01
    11   0.38940000E+00   0.1290330727495E+01   0.3308214735796E+00   0.1621152201075E+01   0.2658561535517E+01   0.3349069442249E+00   0.2993468479742E+01  -0.1368230808021E+01  -0.4085470645235E-02  -0.1372316278667E+01
    12   0.42480000E+00   0.1351995905173E+01   0.3066140871858E+00   0.1658609992359E+01   0.2778281767786E+01   0.3107347603223E+00   0.3089016528108E+01  -0.1426285862613E+01  -0.4120673136493E-02  -0.1430406535749E+01
    13   0.46020000E+00   0.1411221982782E+01   0.2858526285638E+00   0.1697074611345E+01   0.2892856551330E+01   0.2900031396793E+00   0.3182859691009E+01  -0.1481634568548E+01  -0.4150511115541E-02  -0.1485785079664E+01
    14   0.49560000E+00   0.1468311719914E+01   0.2678388769379E+00   0.1736150596852E+01   0.3002884373614E+01   0.2720143347117E+00   0.3274898708326E+01  -0.1534572653700E+01  -0.4175457773851E-02  -0.1538748111474E+01
    15   0.53100000E+00   0.1523508411923E+01   0.2520528534816E+00   0.1775561265404E+01   0.3108852789082E+01   0.2562488141323E+00   0.3365101603214E+01  -0.1585344377159E+01  -0.4195960650642E-02  -0.1589540337810E+01
    16   0.56640000E+00   0.1577012515840E+01   0.2380992680751E+00   0.1815111783915E+01   0.3211166840948E+01   0.2423117065548E+00   0.3453478547502E+01  -0.1634154325108E+01  -0.4212438479643E-02  -0.1638366763588E+01
    17   0.60180000E+00   0.1628991825336E+01   0.2256721473507E+00   0.1854663972687E+01   0.3310167762878E+01   0.2298974266499E+00   0.3540065189528E+01  -0.1681175937541E+01  -0.4225279299160E-02  -0.1685401216840E+01
    18   0.63720000E+00   0.1679587882059E+01   0.2145308116416E+00   0.1894118693700E+01   0.3406145692199E+01   0.2187656515725E+00   0.3624911343771E+01  -0.1726557810140E+01  -0.4234839930804E-02  -0.1730792650071E+01
    19   0.67260000E+00   0.1728921272612E+01   0.2044831819857E+00   0.1933404454597E+01   0.3499349715308E+01   0.2087246285267E+00   0.3708074343834E+01  -0.1770428442696E+01  -0.4241446541022E-02  -0.1774669889237E+01
    20   0.70800000E+00   0.1777094964382E+01   0.1953739603979E+00   0.1972468924780E+01   0.3589994842725E+01   0.1996193563426E+00   0.3789614199067E+01  -0.1812899878343E+01  -0.4245395944732E-02  -0.1817145274288E+01
    21   0.74340000E+00   0.1824200491070E+01   0.1870761193226E+00   0.2011276610393E+01   0.3678271026077E+01   0.1913230766840E+00   0.3869594102761E+01  -0.1854070535007E+01  -0.4246957361429E-02  -0.1858317492368E+01
    22   0.77880000E+00   0.1870316005182E+01   0.1794846723554E+00   0.2049800677537E+01   0.3764343443364E+01   0.1837310467619E+00   0.3948074490126E+01  -0.1894027438182E+01  -0.4246374406494E-02  -0.1898273812589E+01
    23   0.81420000E+00   0.1915511698593E+01   0.1725120532393E+00   0.2088023751832E+01   0.3848359701590E+01   0.1767559204051E+00   0.4025115621995E+01  -0.1932848002997E+01  -0.4243867165784E-02  -0.1937091870163E+01
    24   0.84960000E+00   0.1959849488491E+01   0.1660846284972E+00   0.2125934116988E+01   0.3930450960629E+01   0.1703242627501E+00   0.4100775223379E+01  -0.1970601472138E+01  -0.4239634252836E-02  -0.1974841106391E+01
    25   0.88500000E+00   0.2003383610297E+01   0.1601400300514E+00   0.2163523640349E+01   0.4010733697925E+01   0.1643738848370E+00   0.4175107582762E+01  -0.2007350087628E+01  -0.4233854785595E-02  -0.2011583942414E+01
    26   0.92040000E+00   0.2046164621704E+01   0.1546250858273E+00   0.2200789707531E+01   0.4089314676080E+01   0.1588517760732E+00   0.4248166452153E+01  -0.2043150054376E+01  -0.4226690245957E-02  -0.2047376744622E+01
    27   0.95580000E+00   0.2088235322651E+01   0.1494941933914E+00   0.2237729516042E+01   0.4166287661721E+01   0.1537124795948E+00   0.4320000141316E+01  -0.2078052339070E+01  -0.4218286203423E-02  -0.2082270625274E+01
    28   0.99120000E+00   0.2129637059349E+01   0.1447080268644E+00   0.2274345086213E+01   0.4241740396949E+01   0.1489168007605E+00   0.4390657197709E+01  -0.2112103337600E+01  -0.4208773896068E-02  -0.2116312111496E+01
    29   0.10266000E+01   0.2170404796470E+01   0.1402324983543E+00   0.2310637294824E+01   0.4315750233034E+01   0.1444307700239E+00   0.4460181003058E+01  -0.2145345436564E+01  -0.4198271669659E-02  -0.2149543708234E+01
    30   0.10620000E+01   0.2210571813934E+01   0.1360379169595E+00   0.2346609730893E+01   0.4388389302669E+01   0.1402248032400E+00   0.4528614105909E+01  -0.2177817488735E+01  -0.4186886280462E-02  -0.2182004375015E+01
    31   0.10974000E+01   0.2250168406993E+01   0.1320983021182E+00   0.2382266709112E+01   0.4459723625096E+01   0.1362730161881E+00   0.4595996641284E+01  -0.2209555218102E+01  -0.4174714069947E-02  -0.2213729932172E+01
    32   0.11328000E+01   0.2289221481411E+01   0.1283908204986E+00   0.2417612301909E+01   0.4529813048260E+01   0.1325526625196E+00   0.4662365710780E+01  -0.2240591566850E+01  -0.4161842020958E-02  -0.2244753408871E+01
    33   0.11682000E+01   0.2327755443078E+01   0.1248953210417E+00   0.2452650764119E+01   0.4598712437230E+01   0.1290436697471E+00   0.4727756106977E+01  -0.2270956994152E+01  -0.4148348705419E-02  -0.2275105342857E+01
    34   0.12036000E+01   0.2365786280516E+01   0.1215939494468E+00   0.2487380229963E+01   0.4666466015253E+01   0.1257282545804E+00   0.4792194269833E+01  -0.2300679734736E+01  -0.4134305133564E-02  -0.2304814039870E+01
    35   0.12390000E+01   0.2403343769269E+01   0.1184708270092E+00   0.2521814596278E+01   0.4733129792922E+01   0.1225906025235E+00   0.4855720395445E+01  -0.2329786023653E+01  -0.4119775514260E-02  -0.2333905799167E+01
    36   0.12744000E+01   0.2440444173952E+01   0.1155117818609E+00   0.2555955955813E+01   0.4798744466465E+01   0.1196165997964E+00   0.4918361066261E+01  -0.2358300292513E+01  -0.4104817935451E-02  -0.2362405110448E+01
    37   0.13098000E+01   0.2477107303908E+01   0.1127041230610E+00   0.2589811426969E+01   0.4863352645410E+01   0.1167936080339E+00   0.4980146253444E+01  -0.2386245341502E+01  -0.4089484972995E-02  -0.2390334826475E+01
    38   0.13452000E+01   0.2513351930722E+01   0.1100364498561E+00   0.2623388380578E+01   0.4926994421471E+01   0.1141102740916E+00   0.5041104695563E+01  -0.2413642490749E+01  -0.4073824235504E-02  -0.2417716314984E+01
    39   0.13806000E+01   0.2549193173956E+01   0.1074984899246E+00   0.2656691663880E+01   0.4989704887940E+01   0.1115563687767E+00   0.5101261256716E+01  -0.2440511713984E+01  -0.4057878852027E-02  -0.2444569592836E+01
    40   0.14160000E+01   0.2584642774891E+01   0.1050809615978E+00   0.2689723736489E+01   0.5051514531880E+01   0.1091226495066E+00   0.5160637181386E+01  -0.2466871756988E+01  -0.4041687908787E-02  -0.2470913444897E+01
    41   0.14514000E+01   0.2619714539226E+01   0.1027754560027E+00   0.2722489995228E+01   0.5112454782107E+01   0.1068007428432E+00   0.5219255524950E+01  -0.2492740242881E+01  -0.4025286840478E-02  -0.2496765529721E+01
    42   0.14868000E+01   0.2654422403873E+01   0.1005743358252E+00   0.2754996739698E+01   0.5172556169877E+01   0.1045830436063E+00   0.5277139213483E+01  -0.2518133766004E+01  -0.4008707781108E-02  -0.2522142473785E+01
    43   0.15222000E+01   0.2688782892086E+01   0.9847064799936E-01   0.2787253540085E+01   0.5231850867965E+01   0.1024626278781E+00   0.5334313495844E+01  -0.2543067975879E+01  -0.3991979878763E-02  -0.2547059955758E+01
    44   0.15576000E+01   0.2722798592323E+01   0.9645804811628E-01   0.2819256640439E+01   0.5290356244820E+01   0.1004331776945E+00   0.5390789422515E+01  -0.2567557652498E+01  -0.3975129578233E-02  -0.2571532782076E+01
    45   0.15930000E+01   0.2756488320363E+01   0.9453073473868E-01   0.2851019055102E+01   0.5348105094370E+01   0.9848891561367E-01   0.5446594009984E+01  -0.2591616774007E+01  -0.3958180874992E-02  -0.2595574954882E+01
    46   0.16284000E+01   0.2789853777613E+01   0.9268339212121E-01   0.2882537169734E+01   0.5405112355340E+01   0.9662454766482E-01   0.5501736903005E+01  -0.2615258577727E+01  -0.3941155543606E-02  -0.2619199733271E+01
    47   0.16638000E+01   0.2822912422159E+01   0.9091114009451E-01   0.2913823562254E+01   0.5461408037433E+01   0.9483521343785E-01   0.5556243250870E+01  -0.2638495615274E+01  -0.3924073343341E-02  -0.2642419688617E+01
    48   0.16992000E+01   0.2855669089389E+01   0.8920949007739E-01   0.2944878579466E+01   0.5517008891864E+01   0.9311644228079E-01   0.5610125334145E+01  -0.2661339802476E+01  -0.3906952203394E-02  -0.2665246754679E+01
    49   0.17346000E+01   0.2888130056940E+01   0.8757430635149E-01   0.2975704363291E+01   0.5571932521622E+01   0.9146411474140E-01   0.5663396636364E+01  -0.2683802464683E+01  -0.3889808389915E-02  -0.2687692273072E+01
    50   0.17700000E+01   0.2920304228540E+01   0.8600177187114E-01   0.3006306000411E+01   0.5626198606505E+01   0.8987442852789E-01   0.5716073035033E+01  -0.2705894377964E+01  -0.3872656656752E-02  -0.2709767034621E+01
    51   0.18054000E+01   0.2952201053363E+01   0.8448835799507E-01   0.3036689411358E+01   0.5679826860021E+01   0.8834386837667E-01   0.5768170728397E+01  -0.2727625806657E+01  -0.3855510381606E-02  -0.2731481317039E+01
    52   0.18408000E+01   0.2983827900763E+01   0.8303079762069E-01   0.3066858698384E+01   0.5732834438407E+01   0.8686917930983E-01   0.5819703617717E+01  -0.2749006537644E+01  -0.3838381689138E-02  -0.2752844919333E+01
    53   0.18762000E+01   0.3015189906969E+01   0.8162606127965E-01   0.3096815968249E+01   0.5785235818680E+01   0.8544734284200E-01   0.5870683161522E+01  -0.2770045911711E+01  -0.3821281562349E-02  -0.2773867193273E+01
    54   0.19116000E+01   0.3046291742389E+01   0.8027133581808E-01   0.3126563078207E+01   0.5837044594667E+01   0.8407555576154E-01   0.5921120150429E+01  -0.2790752852278E+01  -0.3804219943463E-02  -0.2794557072222E+01
    55   0.19470000E+01   0.3077140377015E+01   0.7896400533943E-01   0.3156104382354E+01   0.5888276268791E+01   0.8275121116479E-01   0.5971027479956E+01  -0.2811135891776E+01  -0.3787205825361E-02  -0.2814923097602E+01
    56   0.19824000E+01   0.3107743103710E+01   0.7770163413311E-01   0.3185444737843E+01   0.5938946299602E+01   0.8147188146762E-01   0.6020418181070E+01  -0.2831203195892E+01  -0.3770247334516E-02  -0.2834973443227E+01
    57   0.20178000E+01   0.3138108352436E+01   0.7648195135045E-01   0.3214590303787E+01   0.5989070938333E+01   0.8023530315675E-01   0.6069306241490E+01  -0.2850962585897E+01  -0.3753351806305E-02  -0.2854715937703E+01
    58   0.20532000E+01   0.3168232964675E+01   0.7530283722208E-01   0.3243535801897E+01   0.6038654523915E+01   0.7903936307550E-01   0.6117693886990E+01  -0.2870421559240E+01  -0.3736525853418E-02  -0.2874158085094E+01
    59   0.20886000E+01   0.3198131224155E+01   0.7416231063809E-01   0.3272293534793E+01   0.6087718532724E+01   0.7788208606618E-01   0.6165600618790E+01  -0.2889587308569E+01  -0.3719775428082E-02  -0.2893307083997E+01
    60   0.21240000E+01   0.3227799281162E+01   0.7305851793585E-01   0.3300857799098E+01   0.6136266020480E+01   0.7676162381452E-01   0.6213027644294E+01  -0.2908466739317E+01  -0.3703105878664E-02  -0.2912169845196E+01
    61   0.21594000E+01   0.3257244624152E+01   0.7198972275306E-01   0.3329234346905E+01   0.6184311110153E+01   0.7567624475430E-01   0.6259987354907E+01  -0.2927066486000E+01  -0.3686522001240E-02  -0.2930753008002E+01
    62   0.21948000E+01   0.3286477034929E+01   0.7095429687235E-01   0.3357431331801E+01   0.6231869962254E+01   0.7462432495892E-01   0.6306494287213E+01  -0.2945392927325E+01  -0.3670028086569E-02  -0.2949062955412E+01
    63   0.22302000E+01   0.3315492103874E+01   0.6995071184084E-01   0.3385442815715E+01   0.6278944304092E+01   0.7360433980379E-01   0.6352548643896E+01  -0.2963452200218E+01  -0.3653627962952E-02  -0.2967105828181E+01
    64   0.22656000E+01   0.3344299305257E+01   0.6897753142783E-01   0.3413276836685E+01   0.6325549518131E+01   0.7261485646316E-01   0.6398164374594E+01  -0.2981250212874E+01  -0.3637325035330E-02  -0.2984887537909E+01
    65   0.23010000E+01   0.3372900967470E+01   0.6803340472311E-01   0.3440934372193E+01   0.6371693624365E+01   0.7165452704411E-01   0.6443348151409E+01  -0.2998792656895E+01  -0.3621122320994E-02  -0.3002413779216E+01
    66   0.23364000E+01   0.3401299351672E+01   0.6711705985352E-01   0.3468416411526E+01   0.6417384370281E+01   0.7072208233574E-01   0.6488106452617E+01  -0.3016085018609E+01  -0.3605022482221E-02  -0.3019690041091E+01
    67   0.23718000E+01   0.3429502725878E+01   0.6622729824746E-01   0.3495730024125E+01   0.6462635315503E+01   0.6981632610356E-01   0.6532451641607E+01  -0.3033132589626E+01  -0.3589027856105E-02  -0.3036721617482E+01
    68   0.24072000E+01   0.3457508662920E+01   0.6536298939250E-01   0.3522871652313E+01   0.6507449139619E+01   0.6893612987436E-01   0.6576385269493E+01  -0.3049940476698E+01  -0.3573140481860E-02  -0.3053513617180E+01
    69   0.24426000E+01   0.3485322766901E+01   0.6452306603713E-01   0.3549845832938E+01   0.6551836377843E+01   0.6808042816293E-01   0.6619916806006E+01  -0.3066513610942E+01  -0.3557362125806E-02  -0.3070070973068E+01
    70   0.24780000E+01   0.3512946627911E+01   0.6370651979345E-01   0.3576653147705E+01   0.6595803384374E+01   0.6724821409771E-01   0.6663051598472E+01  -0.3082856756463E+01  -0.3541694304262E-02  -0.3086398450767E+01
    71   0.25134000E+01   0.3540388214212E+01   0.6291239710231E-01   0.3603300611315E+01   0.6639362732653E+01   0.6643853540683E-01   0.6705801268059E+01  -0.3098974518440E+01  -0.3526138304521E-02  -0.3102500656745E+01
    72   0.25488000E+01   0.3567644697566E+01   0.6213979552634E-01   0.3629784493092E+01   0.6682516048274E+01   0.6565049073043E-01   0.6748166539004E+01  -0.3114871350708E+01  -0.3510695204086E-02  -0.3118382045912E+01
    73   0.25842000E+01   0.3594720947183E+01   0.6138786034042E-01   0.3656108807523E+01   0.6725272510052E+01   0.6488322622874E-01   0.6790155736281E+01  -0.3130551562869E+01  -0.3495365888317E-02  -0.3134046928758E+01
    74   0.26196000E+01   0.3621618445673E+01   0.6065578139199E-01   0.3682274227065E+01   0.6767637772654E+01   0.6413593245862E-01   0.6831773705113E+01  -0.3146019326981E+01  -0.3480151066624E-02  -0.3149499478048E+01
    75   0.26550000E+01   0.3648344068578E+01   0.5994279020666E-01   0.3708286858784E+01   0.6809622752418E+01   0.6340784149401E-01   0.6873030593912E+01  -0.3161278683840E+01  -0.3465051287346E-02  -0.3164743735128E+01
    76   0.26904000E+01   0.3674895304757E+01   0.5924815731709E-01   0.3734143462074E+01   0.6851228853655E+01   0.6269822426850E-01   0.6913927077923E+01  -0.3176333548898E+01  -0.3450066951407E-02  -0.3179783615849E+01
    77   0.27258000E+01   0.3701276407004E+01   0.5857118979530E-01   0.3759847596799E+01   0.6892464124836E+01   0.6200638812018E-01   0.6954470512956E+01  -0.3191187717832E+01  -0.3435198324873E-02  -0.3194622916157E+01
    78   0.27612000E+01   0.3727491575241E+01   0.5791122897059E-01   0.3785402804211E+01   0.6933336447039E+01   0.6133167452110E-01   0.6994668121560E+01  -0.3205844871798E+01  -0.3420445550503E-02  -0.3209265317349E+01
    79   0.27966000E+01   0.3753538076037E+01   0.5726764831696E-01   0.3810805724354E+01   0.6973846658426E+01   0.6067345697532E-01   0.7034520115401E+01  -0.3220308582389E+01  -0.3405808658359E-02  -0.3223714391047E+01
    80   0.28320000E+01   0.3779424373145E+01   0.5663985149562E-01   0.3836064224641E+01   0.7014006689451E+01   0.6003113907120E-01   0.7074037828522E+01  -0.3234582316306E+01  -0.3391287575580E-02  -0.3237973603881E+01
    81   0.28674000E+01   0.3805147330219E+01   0.5602727053943E-01   0.3861174600759E+01   0.7053816770006E+01   0.5940415267480E-01   0.7113220922681E+01  -0.3248669439786E+01  -0.3376882135372E-02  -0.3252046321922E+01
    82   0.29028000E+01   0.3830710956508E+01   0.5542936416738E-01   0.3886140320675E+01   0.7093284179289E+01   0.5879195625267E-01   0.7152076135541E+01  -0.3262573222781E+01  -0.3362592085285E-02  -0.3265935814866E+01
    83   0.29382000E+01   0.3856119202351E+01   0.5484561621854E-01   0.3910964818570E+01   0.7132416045257E+01   0.5819403331338E-01   0.7190610078570E+01  -0.3276296842906E+01  -0.3348417094840E-02  -0.3279645260001E+01
    84   0.29736000E+01   0.3881368582128E+01   0.5427553419554E-01   0.3935644116323E+01   0.7171211971321E+01   0.5760989095808E-01   0.7228821862279E+01  -0.3289843389193E+01  -0.3334356762546E-02  -0.3293177745956E+01
    85   0.30090000E+01   0.3906467671872E+01   0.5371864790883E-01   0.3960186319780E+01   0.7209683537507E+01   0.5703905853121E-01   0.7266722596038E+01  -0.3303215865636E+01  -0.3320410622374E-02  -0.3306536276258E+01
    86   0.30444000E+01   0.3931412974808E+01   0.5317450821384E-01   0.3984587483022E+01   0.7247830169361E+01   0.5648108636356E-01   0.7304311255724E+01  -0.3316417194553E+01  -0.3306578149717E-02  -0.3319723772703E+01
    87   0.30798000E+01   0.3956208136027E+01   0.5264268583338E-01   0.4008850821861E+01   0.7285658355811E+01   0.5593554460027E-01   0.7341593900411E+01  -0.3329450219783E+01  -0.3292858766887E-02  -0.3332743078550E+01
    88   0.31152000E+01   0.3980856726239E+01   0.5212277025898E-01   0.4032979496498E+01   0.7323174435954E+01   0.5540202210716E-01   0.7378576458061E+01  -0.3342317709715E+01  -0.3279251848184E-02  -0.3345596961563E+01
